# /home/xozidok/work/codes/contra/contra 0 1 1 1 0 9.86 0 0.065 0.0134 0 1
# Standard model of Adiabatic Contraction
# Dark matter profile: Navarro, Frenk & White (1997) model, c=9.86
# Baryon distribution: Exponential model, fb=0.065 rb=0.0134
# Tracer population: Exponential model with isotropic velocity distribution
# los velocity dispersion integrated out to 3 R_vir
#
# r_i       r_f       m_i       m_f       rho_i     rho_f   gam_i gam_f   v_circ  sigma_los
1.000e-04 4.678e-05 3.073e-07 1.401e-06 4.887e+04 2.225e+05 1.002 1.006 1.789e-01 1.365e+00
1.122e-04 5.249e-05 3.868e-07 1.763e-06 4.355e+04 1.982e+05 1.002 1.007 1.895e-01 1.365e+00
1.259e-04 5.890e-05 4.868e-07 2.218e-06 3.880e+04 1.765e+05 1.003 1.007 2.007e-01 1.366e+00
1.413e-04 6.609e-05 6.128e-07 2.791e-06 3.457e+04 1.572e+05 1.003 1.008 2.125e-01 1.367e+00
1.585e-04 7.416e-05 7.713e-07 3.511e-06 3.080e+04 1.399e+05 1.003 1.009 2.250e-01 1.367e+00
1.778e-04 8.321e-05 9.707e-07 4.417e-06 2.744e+04 1.246e+05 1.003 1.011 2.382e-01 1.368e+00
1.995e-04 9.337e-05 1.222e-06 5.556e-06 2.445e+04 1.109e+05 1.004 1.012 2.522e-01 1.369e+00
2.239e-04 1.048e-04 1.538e-06 6.988e-06 2.178e+04 9.868e+04 1.004 1.013 2.670e-01 1.370e+00
2.512e-04 1.176e-04 1.935e-06 8.787e-06 1.940e+04 8.781e+04 1.005 1.015 2.826e-01 1.371e+00
2.818e-04 1.319e-04 2.435e-06 1.105e-05 1.728e+04 7.812e+04 1.006 1.017 2.992e-01 1.372e+00
3.162e-04 1.480e-04 3.064e-06 1.389e-05 1.539e+04 6.948e+04 1.006 1.019 3.167e-01 1.373e+00
3.548e-04 1.661e-04 3.856e-06 1.746e-05 1.371e+04 6.178e+04 1.007 1.021 3.351e-01 1.374e+00
3.981e-04 1.864e-04 4.851e-06 2.195e-05 1.220e+04 5.492e+04 1.008 1.024 3.546e-01 1.371e+00
4.467e-04 2.092e-04 6.103e-06 2.758e-05 1.087e+04 4.881e+04 1.009 1.026 3.752e-01 1.364e+00
5.012e-04 2.347e-04 7.678e-06 3.464e-05 9.675e+03 4.336e+04 1.010 1.030 3.970e-01 1.364e+00
5.623e-04 2.634e-04 9.658e-06 4.351e-05 8.612e+03 3.851e+04 1.011 1.033 4.199e-01 1.363e+00
6.310e-04 2.956e-04 1.215e-05 5.462e-05 7.665e+03 3.418e+04 1.012 1.037 4.441e-01 1.363e+00
7.079e-04 3.317e-04 1.528e-05 6.856e-05 6.822e+03 3.033e+04 1.014 1.042 4.696e-01 1.363e+00
7.943e-04 3.723e-04 1.921e-05 8.602e-05 6.069e+03 2.689e+04 1.016 1.047 4.965e-01 1.360e+00
8.913e-04 4.178e-04 2.416e-05 1.079e-04 5.399e+03 2.383e+04 1.017 1.052 5.248e-01 1.359e+00
1.000e-03 4.690e-04 3.037e-05 1.352e-04 4.802e+03 2.111e+04 1.020 1.059 5.545e-01 1.359e+00
1.122e-03 5.264e-04 3.817e-05 1.695e-04 4.269e+03 1.868e+04 1.022 1.066 5.858e-01 1.358e+00
1.259e-03 5.908e-04 4.797e-05 2.122e-04 3.795e+03 1.651e+04 1.025 1.073 6.186e-01 1.356e+00
1.413e-03 6.632e-04 6.027e-05 2.656e-04 3.372e+03 1.459e+04 1.027 1.082 6.530e-01 1.355e+00
1.585e-03 7.444e-04 7.570e-05 3.321e-04 2.995e+03 1.287e+04 1.031 1.092 6.890e-01 1.353e+00
1.778e-03 8.357e-04 9.507e-05 4.150e-04 2.660e+03 1.134e+04 1.034 1.103 7.267e-01 1.351e+00
1.995e-03 9.383e-04 1.193e-04 5.181e-04 2.360e+03 9.983e+03 1.039 1.115 7.661e-01 1.348e+00
2.239e-03 1.053e-03 1.498e-04 6.462e-04 2.094e+03 8.773e+03 1.043 1.129 8.071e-01 1.345e+00
2.512e-03 1.183e-03 1.879e-04 8.050e-04 1.856e+03 7.697e+03 1.048 1.144 8.498e-01 1.341e+00
2.818e-03 1.328e-03 2.356e-04 1.002e-03 1.645e+03 6.741e+03 1.054 1.161 8.941e-01 1.334e+00
3.162e-03 1.492e-03 2.953e-04 1.245e-03 1.456e+03 5.891e+03 1.060 1.180 9.399e-01 1.329e+00
3.548e-03 1.676e-03 3.700e-04 1.545e-03 1.288e+03 5.137e+03 1.068 1.201 9.872e-01 1.323e+00
3.981e-03 1.883e-03 4.632e-04 1.913e-03 1.139e+03 4.468e+03 1.076 1.224 1.036e+00 1.316e+00
4.467e-03 2.115e-03 5.796e-04 2.365e-03 1.006e+03 3.875e+03 1.084 1.250 1.086e+00 1.307e+00
5.012e-03 2.377e-03 7.246e-04 2.919e-03 8.872e+02 3.350e+03 1.094 1.278 1.137e+00 1.298e+00
5.623e-03 2.672e-03 9.053e-04 3.593e-03 7.817e+02 2.887e+03 1.105 1.309 1.188e+00 1.287e+00
6.310e-03 3.004e-03 1.130e-03 4.413e-03 6.879e+02 2.478e+03 1.117 1.344 1.241e+00 1.275e+00
7.079e-03 3.378e-03 1.409e-03 5.404e-03 6.044e+02 2.118e+03 1.130 1.381 1.293e+00 1.261e+00
7.943e-03 3.800e-03 1.755e-03 6.598e-03 5.302e+02 1.803e+03 1.145 1.423 1.345e+00 1.244e+00
8.913e-03 4.276e-03 2.184e-03 8.030e-03 4.643e+02 1.526e+03 1.162 1.468 1.396e+00 1.227e+00
1.000e-02 4.814e-03 2.713e-03 9.738e-03 4.057e+02 1.285e+03 1.180 1.517 1.446e+00 1.247e+00
1.122e-02 5.423e-03 3.366e-03 1.176e-02 3.538e+02 1.076e+03 1.199 1.570 1.495e+00 1.224e+00
1.259e-02 6.111e-03 4.169e-03 1.415e-02 3.078e+02 8.953e+02 1.221 1.627 1.541e+00 1.199e+00
1.413e-02 6.891e-03 5.155e-03 1.695e-02 2.671e+02 7.398e+02 1.244 1.688 1.583e+00 1.173e+00
1.585e-02 7.776e-03 6.361e-03 2.020e-02 2.311e+02 6.069e+02 1.270 1.752 1.623e+00 1.107e+00
1.778e-02 8.782e-03 7.833e-03 2.395e-02 1.993e+02 4.941e+02 1.298 1.819 1.657e+00 1.076e+00
1.995e-02 9.929e-03 9.623e-03 2.825e-02 1.714e+02 3.992e+02 1.329 1.889 1.687e+00 1.041e+00
2.239e-02 1.124e-02 1.179e-02 3.314e-02 1.468e+02 3.199e+02 1.362 1.959 1.710e+00 1.006e+00
2.512e-02 1.274e-02 1.441e-02 3.865e-02 1.252e+02 2.543e+02 1.397 2.028 1.728e+00 9.686e-01
2.818e-02 1.446e-02 1.757e-02 4.481e-02 1.064e+02 2.005e+02 1.435 2.095 1.739e+00 9.594e-01
3.162e-02 1.644e-02 2.134e-02 5.165e-02 8.999e+01 1.570e+02 1.475 2.156 1.743e+00 9.181e-01
3.548e-02 1.874e-02 2.584e-02 5.918e-02 7.575e+01 1.221e+02 1.518 2.208 1.740e+00 8.748e-01
3.981e-02 2.141e-02 3.117e-02 6.744e-02 6.343e+01 9.447e+01 1.564 2.248 1.730e+00 8.073e-01
4.467e-02 2.453e-02 3.746e-02 7.644e-02 5.284e+01 7.281e+01 1.612 2.274 1.715e+00 7.654e-01
5.012e-02 2.820e-02 4.484e-02 8.623e-02 4.376e+01 5.600e+01 1.661 2.284 1.695e+00 7.238e-01
5.623e-02 3.254e-02 5.345e-02 9.686e-02 3.604e+01 4.306e+01 1.713 2.278 1.670e+00 6.828e-01
6.310e-02 3.770e-02 6.343e-02 1.084e-01 2.950e+01 3.316e+01 1.767 2.258 1.642e+00 6.432e-01
7.079e-02 4.385e-02 7.494e-02 1.210e-01 2.399e+01 2.561e+01 1.822 2.232 1.612e+00 6.045e-01
7.943e-02 5.119e-02 8.811e-02 1.348e-01 1.939e+01 1.984e+01 1.878 2.204 1.581e+00 5.674e-01
8.913e-02 5.991e-02 1.031e-01 1.498e-01 1.557e+01 1.541e+01 1.935 2.182 1.550e+00 5.320e-01
1.000e-01 7.020e-02 1.200e-01 1.664e-01 1.242e+01 1.199e+01 1.993 2.173 1.520e+00 4.984e-01
1.122e-01 8.218e-02 1.391e-01 1.846e-01 9.837e+00 9.340e+00 2.050 2.176 1.491e+00 4.666e-01
1.259e-01 9.597e-02 1.603e-01 2.046e-01 7.743e+00 7.265e+00 2.108 2.191 1.463e+00 4.366e-01
1.413e-01 1.117e-01 1.838e-01 2.266e-01 6.055e+00 5.637e+00 2.164 2.216 1.437e+00 4.083e-01
1.585e-01 1.294e-01 2.097e-01 2.506e-01 4.705e+00 4.360e+00 2.220 2.248 1.411e+00 3.816e-01
1.778e-01 1.494e-01 2.380e-01 2.768e-01 3.632e+00 3.359e+00 2.274 2.284 1.386e+00 3.564e-01
1.995e-01 1.718e-01 2.688e-01 3.053e-01 2.787e+00 2.576e+00 2.326 2.323 1.362e+00 3.326e-01
2.239e-01 1.970e-01 3.021e-01 3.361e-01 2.126e+00 1.967e+00 2.376 2.364 1.338e+00 3.101e-01
2.512e-01 2.253e-01 3.378e-01 3.692e-01 1.613e+00 1.495e+00 2.425 2.405 1.315e+00 2.888e-01
2.818e-01 2.570e-01 3.760e-01 4.046e-01 1.217e+00 1.131e+00 2.471 2.445 1.291e+00 2.688e-01
3.162e-01 2.926e-01 4.166e-01 4.424e-01 9.132e-01 8.514e-01 2.514 2.485 1.267e+00 2.498e-01
3.548e-01 3.325e-01 4.596e-01 4.825e-01 6.820e-01 6.381e-01 2.555 2.524 1.242e+00 2.319e-01
3.981e-01 3.772e-01 5.047e-01 5.249e-01 5.071e-01 4.762e-01 2.594 2.561 1.217e+00 2.150e-01
4.467e-01 4.274e-01 5.521e-01 5.694e-01 3.754e-01 3.538e-01 2.630 2.597 1.192e+00 1.991e-01
5.012e-01 4.838e-01 6.015e-01 6.161e-01 2.768e-01 2.619e-01 2.664 2.632 1.166e+00 1.841e-01
5.623e-01 5.470e-01 6.529e-01 6.648e-01 2.033e-01 1.931e-01 2.692 2.661 1.139e+00 1.700e-01
6.310e-01 6.179e-01 7.061e-01 7.154e-01 1.488e-01 1.419e-01 2.729 2.699 1.112e+00 1.568e-01
7.079e-01 6.976e-01 7.610e-01 7.678e-01 1.086e-01 1.038e-01 2.732 2.703 1.085e+00 1.445e-01
7.943e-01 7.870e-01 8.176e-01 8.220e-01 7.910e-02 7.589e-02 2.816 2.787 1.057e+00 1.330e-01
8.913e-01 8.873e-01 8.756e-01 8.777e-01 5.717e-02 5.501e-02 2.722 2.706 1.028e+00 1.222e-01
1.000e+00 1.000e+00 9.350e-01 9.350e-01 4.243e-02 4.087e-02 2.590 2.581 1.000e+00 1.123e-01
